t amplitude xerr yerr
0.0 0.6002951027813027 0.0008 0.008
0.03333333333333394 0.5992423217964151 0.0008 0.008
0.06666666666666606 0.5936247451540142 0.0008 0.008
0.1 0.5822726584610672 0.0008 0.008
0.1333333333333321 0.5666497889186903 0.0008 0.008
0.16666666666666605 0.546582074603804 0.0008 0.008
0.2 0.5207177337312525 0.0008 0.008
0.23333333333333212 0.4913253328336631 0.0008 0.008
0.26666666666666605 0.45790785322580935 0.0008 0.008
0.29999999999999816 0.41975146645367767 0.0008 0.008
0.3333333333333321 0.378702535885217 0.0008 0.008
0.3666666666666661 0.33434923777414555 0.0008 0.008
0.4 0.286695525520296 0.0008 0.008
0.43333333333333396 0.23646835951569614 0.0008 0.008
0.46666666666666606 0.1860943204243729 0.0008 0.008
0.5 0.1327292194197715 0.0008 0.008
0.533333333333334 0.07940054128510739 0.0008 0.008
0.5666666666666661 0.023997813547628265 0.0008 0.008
0.6 -0.03057125599656325 0.0008 0.008
0.6333333333333321 -0.0854742540246256 0.0008 0.008
0.6666666666666661 -0.1381157813683249 0.0008 0.008
0.7 -0.1899492329554632 0.0008 0.008
0.7333333333333322 -0.23981027200888866 0.0008 0.008
0.766666666666666 -0.28491159164579366 0.0008 0.008
0.7999999999999982 -0.3288637720623076 0.0008 0.008
0.8333333333333321 -0.37022881085569687 0.0008 0.008
0.8666666666666679 -0.4086458760570098 0.0008 0.008
0.9 -0.442946370552286 0.0008 0.008
0.9333333333333339 -0.4733176195164537 0.0008 0.008
0.966666666666666 -0.49912264379619226 0.0008 0.008
1.0 -0.5198945487886422 0.0008 0.008
1.0333333333333339 -0.536441740666404 0.0008 0.008
1.066666666666666 -0.5478115178728885 0.0008 0.008
1.1 -0.5539124424084096 0.0008 0.008
1.1333333333333322 -0.5559378274136026 0.0008 0.008
1.166666666666666 -0.5526546710756579 0.0008 0.008
1.2 -0.5451346931421006 0.0008 0.008
1.233333333333332 -0.5322714922684443 0.0008 0.008
1.2666666666666662 -0.514477132288556 0.0008 0.008
1.2999999999999983 -0.49178108753843597 0.0008 0.008
1.3333333333333321 -0.4652043641906637 0.0008 0.008
1.3666666666666678 -0.4337190047090869 0.0008 0.008
1.4 -0.3983119657817306 0.0008 0.008
1.433333333333334 -0.35999940558805094 0.0008 0.008
1.4666666666666661 -0.31759136603823024 0.0008 0.008
1.5 -0.27283265823834973 0.0008 0.008
1.535 -0.22613912740204534 0.0008 0.008
1.568333333333334 -0.1752813506334336 0.0008 0.008
1.6016666666666661 -0.123218791775108 0.0008 0.008
1.635 -0.06991692286147468 0.0008 0.008
1.668333333333334 -0.016534538830403015 0.0008 0.008
1.701666666666666 0.03785748723352877 0.0008 0.008
1.735 0.09265217150578693 0.0008 0.008
1.7683333333333322 0.14622949766207283 0.0008 0.008
1.801666666666666 0.1980011650038622 0.0008 0.008
1.835 0.2475916888318343 0.0008 0.008
1.868333333333332 0.2957000099798056 0.0008 0.008
1.901666666666666 0.3418810967684647 0.0008 0.008
1.935 0.38423258252370157 0.0008 0.008
1.968333333333334 0.4237238824385436 0.0008 0.008
2.001666666666668 0.45914383637489714 0.0008 0.008
2.035 0.4919372064936278 0.0008 0.008
2.068333333333334 0.5188574964414713 0.0008 0.008
2.101666666666666 0.5407332774963854 0.0008 0.008
2.135 0.5590551281216528 0.0008 0.008
2.168333333333334 0.5714843320287106 0.0008 0.008
2.201666666666666 0.5803278699202136 0.0008 0.008
2.235 0.5841580311927198 0.0008 0.008
2.268333333333332 0.5827134975813905 0.0008 0.008
2.301666666666666 0.5756771235954805 0.0008 0.008
2.335 0.5638595615831723 0.0008 0.008
2.3683333333333323 0.5473113309429081 0.0008 0.008
2.401666666666666 0.5259026691064539 0.0008 0.008
2.435 0.5001685575688523 0.0008 0.008
2.468333333333334 0.4703355053898391 0.0008 0.008
2.501666666666668 0.4367358714014583 0.0008 0.008
2.535 0.39919286417116673 0.0008 0.008
2.568333333333334 0.3583520135435299 0.0008 0.008
2.601666666666666 0.3150436912008774 0.0008 0.008
2.635 0.26797415730636887 0.0008 0.008
2.668333333333334 0.2194332799414945 0.0008 0.008
2.701666666666666 0.16908019985985262 0.0008 0.008
2.735 0.11731628095073933 0.0008 0.008
2.768333333333332 0.0654535468349309 0.0008 0.008
2.801666666666666 0.013468980171224476 0.0008 0.008
2.835 -0.04041493530449087 0.0008 0.008
2.8683333333333323 -0.09276598374055144 0.0008 0.008
2.901666666666666 -0.1441159180876663 0.0008 0.008
2.935 -0.19332798186043973 0.0008 0.008
2.968333333333334 -0.24119515693360988 0.0008 0.008
3.001666666666668 -0.28516662966523526 0.0008 0.008
3.035 -0.3274539522243186 0.0008 0.008
3.068333333333334 -0.36659650043647884 0.0008 0.008
3.101666666666666 -0.40262386102198605 0.0008 0.008
3.135 -0.4349781575444359 0.0008 0.008
3.168333333333334 -0.4638481742075845 0.0008 0.008
3.201666666666666 -0.4885472520531546 0.0008 0.008
3.235 -0.5077142279486166 0.0008 0.008
3.268333333333332 -0.5221712822653198 0.0008 0.008
3.301666666666666 -0.5324338888693595 0.0008 0.008
3.335 -0.5379871720501485 0.0008 0.008
3.3683333333333323 -0.5388923280527109 0.0008 0.008
3.4016666666666677 -0.5342519894461241 0.0008 0.008
3.435 -0.5250913633062471 0.0008 0.008
3.468333333333334 -0.5118873473728968 0.0008 0.008
3.501666666666668 -0.493539887525879 0.0008 0.008
3.535 -0.47086675934952477 0.0008 0.008
3.568333333333334 -0.4429660319536276 0.0008 0.008
3.601666666666666 -0.41146834792978515 0.0008 0.008
3.635 -0.37667456767080515 0.0008 0.008
3.668333333333334 -0.3376207368772521 0.0008 0.008
3.701666666666666 -0.29593571052084594 0.0008 0.008
3.7350000000000017 -0.2528880600138283 0.0008 0.008
3.768333333333332 -0.2069214964013279 0.0008 0.008
3.801666666666668 -0.15778443937921358 0.0008 0.008
3.835 -0.10715937817590124 0.0008 0.008
3.868333333333334 -0.054821954933438714 0.0008 0.008
3.901666666666666 -0.002452099815837438 0.0008 0.008
3.935 0.049890704843635975 0.0008 0.008
3.968333333333332 0.10231100041964415 0.0008 0.008
4.001666666666668 0.1534862687482859 0.0008 0.008
4.035 0.2036479250976329 0.0008 0.008
4.0683333333333325 0.2513299389027392 0.0008 0.008
4.101666666666664 0.2977543427244161 0.0008 0.008
4.135 0.3410532724816804 0.0008 0.008
4.168333333333336 0.38127659779176626 0.0008 0.008
4.201666666666668 0.4186012165277586 0.0008 0.008
4.235 0.4528017561749801 0.0008 0.008
4.268333333333332 0.4827240403612895 0.0008 0.008
4.301666666666668 0.5077964214272567 0.0008 0.008
4.335 0.5277980482657497 0.0008 0.008
4.368333333333336 0.5445862317241327 0.0008 0.008
4.401666666666665 0.5562036705937937 0.0008 0.008
4.435 0.5636308052215281 0.0008 0.008
4.468333333333332 0.5653607722348832 0.0008 0.008
4.501666666666668 0.5619519246749077 0.0008 0.008
4.535 0.5544437809186289 0.0008 0.008
4.5683333333333325 0.5416152041510215 0.0008 0.008
4.601666666666664 0.5237835391568109 0.0008 0.008
4.635 0.5028350972032122 0.0008 0.008
4.668333333333336 0.476889397843895 0.0008 0.008
4.701666666666668 0.4470127765865436 0.0008 0.008
4.735 0.41365902705586505 0.0008 0.008
4.768333333333332 0.37620931079618175 0.0008 0.008
4.801666666666668 0.336504797395077 0.0008 0.008
4.835 0.2930788855703393 0.0008 0.008
4.868333333333336 0.24737451340059546 0.0008 0.008
4.901666666666665 0.20056144863483885 0.0008 0.008
4.935 0.15178912524137245 0.0008 0.008
4.968333333333332 0.10148376871289477 0.0008 0.008
5.001666666666668 0.050334853820165074 0.0008 0.008
5.035 -0.0009735542965103366 0.0008 0.008
5.0683333333333325 -0.052070024109181094 0.0008 0.008
5.101666666666664 -0.10247708337487559 0.0008 0.008
5.135 -0.15114437506980774 0.0008 0.008
5.168333333333336 -0.19811355929340355 0.0008 0.008
5.201666666666668 -0.2446560374672634 0.0008 0.008
5.235 -0.2863157758634306 0.0008 0.008
5.268333333333332 -0.3265416037125027 0.0008 0.008
5.301666666666668 -0.36315827575784243 0.0008 0.008
5.335 -0.3971486910066961 0.0008 0.008
5.368333333333336 -0.4282775834030149 0.0008 0.008
5.401666666666665 -0.45459358234942915 0.0008 0.008
5.435 -0.4768721260725815 0.0008 0.008
5.47 -0.4950297215792353 0.0008 0.008
5.503333333333332 -0.507948670156022 0.0008 0.008
5.536666666666668 -0.5161391818107163 0.0008 0.008
5.57 -0.5197313762072222 0.0008 0.008
5.603333333333332 -0.5190304747681486 0.0008 0.008
5.636666666666664 -0.5144773653900128 0.0008 0.008
5.67 -0.5041860199515831 0.0008 0.008
5.703333333333336 -0.4899237929481377 0.0008 0.008
5.736666666666668 -0.4708439317697584 0.0008 0.008
5.77 -0.4472819886453504 0.0008 0.008
5.803333333333332 -0.4193832384960624 0.0008 0.008
5.836666666666668 -0.3880464735073428 0.0008 0.008
5.87 -0.352635130509088 0.0008 0.008
5.903333333333336 -0.31470542183255623 0.0008 0.008
5.936666666666664 -0.27376528898866537 0.0008 0.008
5.97 -0.2306916617317476 0.0008 0.008
6.003333333333332 -0.18460986443917488 0.0008 0.008
6.036666666666668 -0.13670905814451784 0.0008 0.008
6.07 -0.08732220503201017 0.0008 0.008
6.103333333333332 -0.03690020465813294 0.0008 0.008
6.136666666666664 0.014175387386273969 0.0008 0.008
6.17 0.06536481399231026 0.0008 0.008
6.203333333333336 0.11586179666627303 0.0008 0.008
6.236666666666668 0.16567318466333922 0.0008 0.008
6.27 0.21370115983697144 0.0008 0.008
6.303333333333332 0.25931999265474126 0.0008 0.008
6.336666666666668 0.3033460706267657 0.0008 0.008
6.37 0.3439214195991041 0.0008 0.008
6.403333333333336 0.3825646605129157 0.0008 0.008
6.436666666666664 0.4174135416598886 0.0008 0.008
6.47 0.4478285365207697 0.0008 0.008
6.503333333333332 0.47572110240500576 0.0008 0.008
6.536666666666668 0.4987469495700222 0.0008 0.008
6.57 0.5167984834278331 0.0008 0.008
6.603333333333332 0.530950063798114 0.0008 0.008
6.636666666666664 0.5414830335567189 0.0008 0.008
6.67 0.546640733864203 0.0008 0.008
6.703333333333336 0.546751939681899 0.0008 0.008
6.736666666666668 0.5432284605254587 0.0008 0.008
6.77 0.5338012076550799 0.0008 0.008
6.803333333333332 0.5202712387466524 0.0008 0.008
6.836666666666668 0.5026597903619954 0.0008 0.008
6.87 0.48121265452620887 0.0008 0.008
6.903333333333336 0.45460747776529814 0.0008 0.008
6.936666666666664 0.4244717520764784 0.0008 0.008
6.97 0.390215902707175 0.0008 0.008
7.003333333333332 0.35362571096069356 0.0008 0.008
7.036666666666668 0.31355309801426984 0.0008 0.008
7.07 0.27084552301721543 0.0008 0.008
7.103333333333332 0.22641505061929892 0.0008 0.008
7.136666666666664 0.17987224031854157 0.0008 0.008
7.17 0.1320827755173993 0.0008 0.008
7.203333333333336 0.08351433675545765 0.0008 0.008
7.236666666666668 0.033224375665503736 0.0008 0.008
7.27 -0.01636303194981431 0.0008 0.008
7.303333333333332 -0.06562957068326734 0.0008 0.008
7.336666666666668 -0.11312873520061682 0.0008 0.008
7.37 -0.15986746931618373 0.0008 0.008
7.403333333333336 -0.2055153640829066 0.0008 0.008
7.436666666666664 -0.2491105707644262 0.0008 0.008
7.47 -0.288838904950523 0.0008 0.008
7.503333333333332 -0.32710390495846836 0.0008 0.008
7.536666666666668 -0.3628566161544459 0.0008 0.008
7.57 -0.3943392471268593 0.0008 0.008
7.603333333333332 -0.42260405672955975 0.0008 0.008
7.636666666666664 -0.4469720017656518 0.0008 0.008
7.67 -0.4670612868762608 0.0008 0.008
7.703333333333336 -0.48243490745473677 0.0008 0.008
7.736666666666668 -0.49394817589596474 0.0008 0.008
7.77 -0.5002299851585995 0.0008 0.008
7.803333333333332 -0.502398134045754 0.0008 0.008
7.836666666666668 -0.5010267744708288 0.0008 0.008
7.87 -0.49369593835660486 0.0008 0.008
7.903333333333336 -0.48226966832951484 0.0008 0.008
7.936666666666664 -0.4669259650376625 0.0008 0.008
7.97 -0.4467589563038898 0.0008 0.008
8.003333333333332 -0.42235588485986975 0.0008 0.008
8.036666666666667 -0.39355594591290294 0.0008 0.008
8.07 -0.36148822621442184 0.0008 0.008
8.103333333333332 -0.32616122322354973 0.0008 0.008
8.136666666666668 -0.28809118566538783 0.0008 0.008
8.17 -0.2474947694228361 0.0008 0.008
8.203333333333335 -0.20460175377654125 0.0008 0.008
8.236666666666668 -0.15810027710944144 0.0008 0.008
8.27 -0.11163598080753455 0.0008 0.008
8.303333333333333 -0.06299516776200964 0.0008 0.008
8.336666666666668 -0.014130906055484874 0.0008 0.008
8.37 0.03567578953426087 0.0008 0.008
8.403333333333336 0.08458138299924811 0.0008 0.008
8.436666666666664 0.13336364551567517 0.0008 0.008
8.47 0.18000887145421302 0.0008 0.008
8.503333333333332 0.2255354564272386 0.0008 0.008
8.536666666666667 0.27029734097222136 0.0008 0.008
8.57 0.31134918759055996 0.0008 0.008
8.603333333333332 0.3504132374500225 0.0008 0.008
8.636666666666668 0.38646856023258375 0.0008 0.008
8.67 0.41906958463706856 0.0008 0.008
8.703333333333335 0.4476687213220379 0.0008 0.008
8.736666666666668 0.47248744928678466 0.0008 0.008
8.77 0.4930271932966463 0.0008 0.008
8.803333333333333 0.5094356723076806 0.0008 0.008
8.836666666666668 0.5221048178890051 0.0008 0.008
8.87 0.5299964632465278 0.0008 0.008
8.903333333333336 0.5327822533087373 0.0008 0.008
8.936666666666664 0.5311935858045759 0.0008 0.008
8.97 0.5260169290847829 0.0008 0.008
9.003333333333332 0.5149107076621601 0.0008 0.008
9.036666666666667 0.5002932485941262 0.0008 0.008
9.07 0.48167372215890103 0.0008 0.008
9.103333333333332 0.4581275471211983 0.0008 0.008
9.136666666666668 0.4307859168010472 0.0008 0.008
9.17 0.4001258571783176 0.0008 0.008
9.203333333333335 0.36580779424389404 0.0008 0.008
9.236666666666668 0.3285521089298734 0.0008 0.008
9.27 0.28895829117603933 0.0008 0.008
9.303333333333333 0.24654367056194706 0.0008 0.008
9.336666666666668 0.20244178808367144 0.0008 0.008
9.37 0.15727496206108604 0.0008 0.008
9.403333333333336 0.10984420155827157 0.0008 0.008
9.436666666666664 0.061802175710327374 0.0008 0.008
9.471666666666664 0.013791921754800807 0.0008 0.008
9.505 -0.034429895953239156 0.0008 0.008
9.538333333333332 -0.08180897129556877 0.0008 0.008
9.571666666666667 -0.12820509872726624 0.0008 0.008
9.605 -0.17407263636478446 0.0008 0.008
9.638333333333332 -0.21749903416411695 0.0008 0.008
9.671666666666665 -0.2581135926607407 0.0008 0.008
9.705 -0.2960287882696104 0.0008 0.008
9.738333333333335 -0.33127329330782573 0.0008 0.008
9.771666666666668 -0.36362933871982867 0.0008 0.008
9.805 -0.39298653415625756 0.0008 0.008
9.838333333333333 -0.41892783767783587 0.0008 0.008
9.871666666666668 -0.4411591048203238 0.0008 0.008
9.905 -0.458806332563676 0.0008 0.008
9.938333333333336 -0.4720346385296618 0.0008 0.008
9.971666666666664 -0.4809482937175058 0.0008 0.008
10.005 -0.48558654064990414 0.0008 0.008
10.038333333333332 -0.4858494089967427 0.0008 0.008
10.071666666666667 -0.48172191136614073 0.0008 0.008
10.105 -0.4729553346927364 0.0008 0.008
10.138333333333332 -0.46025944668047786 0.0008 0.008
10.171666666666669 -0.44279813063161416 0.0008 0.008
10.205 -0.4215624062218696 0.0008 0.008
10.238333333333335 -0.39603689133297953 0.0008 0.008
10.271666666666668 -0.36739268770734007 0.0008 0.008
10.305 -0.3349907306018003 0.0008 0.008
10.338333333333333 -0.29934870692456683 0.0008 0.008
10.371666666666668 -0.2625380341568979 0.0008 0.008
10.405 -0.22232672490196068 0.0008 0.008
10.438333333333336 -0.17892764178132597 0.0008 0.008
10.471666666666664 -0.13416352371147508 0.0008 0.008
10.505 -0.08758697655404557 0.0008 0.008
10.538333333333332 -0.04038610507721297 0.0008 0.008
10.571666666666667 0.007855733530886491 0.0008 0.008
10.605 0.055679572196080045 0.0008 0.008
10.638333333333332 0.1035416716798697 0.0008 0.008
10.671666666666669 0.15089645349896785 0.0008 0.008
10.705 0.19692064440390986 0.0008 0.008
10.738333333333335 0.2392344389160793 0.0008 0.008
10.771666666666668 0.2817133263918416 0.0008 0.008
10.805 0.3202733276085766 0.0008 0.008
10.838333333333333 0.35768888255840375 0.0008 0.008
10.871666666666668 0.39040178651742774 0.0008 0.008
10.905 0.4206683430806397 0.0008 0.008
10.938333333333336 0.446591611788503 0.0008 0.008
10.971666666666664 0.4695195061454648 0.0008 0.008
11.005 0.4875975111888606 0.0008 0.008
11.038333333333332 0.5016814985363229 0.0008 0.008
11.071666666666667 0.5116151511025434 0.0008 0.008
11.105 0.5171095752931141 0.0008 0.008
11.138333333333332 0.5175974345407854 0.0008 0.008
11.171666666666669 0.5144093197931278 0.0008 0.008
11.205 0.5062417632565713 0.0008 0.008
11.238333333333335 0.49395378296153514 0.0008 0.008
11.271666666666668 0.4778822230480325 0.0008 0.008
11.305 0.45772288882161166 0.0008 0.008
11.338333333333333 0.4328766380935863 0.0008 0.008
11.371666666666668 0.4042031122139806 0.0008 0.008
11.405 0.37316523997661466 0.0008 0.008
11.438333333333336 0.3378651190815787 0.0008 0.008
11.471666666666664 0.30032708269688885 0.0008 0.008
11.505 0.2602422523885836 0.0008 0.008
11.538333333333332 0.21809668644403835 0.0008 0.008
11.571666666666667 0.1753687520534133 0.0008 0.008
11.605 0.1301533325750421 0.0008 0.008
11.638333333333332 0.08333791728614157 0.0008 0.008
11.671666666666669 0.036223745410223565 0.0008 0.008
11.705 -0.009852534806342047 0.0008 0.008
11.738333333333335 -0.05598663316992861 0.0008 0.008
11.771666666666668 -0.10091016172748446 0.0008 0.008
11.805 -0.14596471449086157 0.0008 0.008
11.838333333333333 -0.1895374189832127 0.0008 0.008
11.871666666666668 -0.23112141818575016 0.0008 0.008
11.905 -0.2687743236421922 0.0008 0.008
11.938333333333336 -0.30357237003354703 0.0008 0.008
11.971666666666664 -0.33706140779400967 0.0008 0.008
12.005 -0.3676116477832556 0.0008 0.008
12.038333333333332 -0.3942127444038448 0.0008 0.008
12.071666666666667 -0.41759981868041995 0.0008 0.008
12.105 -0.43716051274562395 0.0008 0.008
12.138333333333332 -0.4526049114843943 0.0008 0.008
12.171666666666669 -0.462681080763411 0.0008 0.008
12.205 -0.4697275663933661 0.0008 0.008
12.238333333333335 -0.47177036382467546 0.0008 0.008
12.271666666666668 -0.4702830513305974 0.0008 0.008
12.305 -0.46440591520734387 0.0008 0.008
12.338333333333333 -0.45377445080439255 0.0008 0.008
12.371666666666668 -0.43924639940819143 0.0008 0.008
12.405 -0.4202794185225022 0.0008 0.008
12.438333333333336 -0.3975929760113765 0.0008 0.008
12.471666666666664 -0.3706064834335488 0.0008 0.008
12.505 -0.3398557970449744 0.0008 0.008
12.538333333333332 -0.3070990508148132 0.0008 0.008
12.571666666666667 -0.2723506487971006 0.0008 0.008
12.605 -0.2344445385695201 0.0008 0.008
12.638333333333332 -0.19306636940392494 0.0008 0.008
12.671666666666669 -0.1497721024668283 0.0008 0.008
12.705 -0.1053258969126893 0.0008 0.008
12.738333333333335 -0.05974991603866033 0.0008 0.008
12.771666666666668 -0.012915811338510969 0.0008 0.008
12.805 0.033053080796844395 0.0008 0.008
12.838333333333333 0.07949808177103601 0.0008 0.008
12.871666666666668 0.1253269025961108 0.0008 0.008
12.905 0.17016597763085478 0.0008 0.008
12.938333333333336 0.21384115340829385 0.0008 0.008
12.971666666666664 0.25533718746571615 0.0008 0.008
13.005 0.2942827457200651 0.0008 0.008
13.038333333333332 0.33040989000682686 0.0008 0.008
13.071666666666667 0.36446701562775413 0.0008 0.008
13.105 0.39466105341649804 0.0008 0.008
13.138333333333332 0.4220560042054527 0.0008 0.008
13.171666666666669 0.44518506600333635 0.0008 0.008
13.205 0.46586746722225336 0.0008 0.008
13.238333333333335 0.4817130340914804 0.0008 0.008
13.271666666666668 0.49325789766817124 0.0008 0.008
13.305 0.5005924914657753 0.0008 0.008
13.338333333333333 0.5037573094501996 0.0008 0.008
13.371666666666668 0.5024078623201956 0.0008 0.008
13.405 0.4966541657564221 0.0008 0.008
13.44 0.4871696231026251 0.0008 0.008
13.473333333333336 0.4730230995259119 0.0008 0.008
13.506666666666664 0.455221872788927 0.0008 0.008
13.54 0.4328163140320737 0.0008 0.008
13.573333333333332 0.40739271273925043 0.0008 0.008
13.606666666666667 0.3790496975574603 0.0008 0.008
13.64 0.3454649659775354 0.0008 0.008
13.673333333333332 0.3113174568379329 0.0008 0.008
13.706666666666667 0.27313025511740224 0.0008 0.008
13.74 0.23182930045671293 0.0008 0.008
13.773333333333335 0.19094019938842996 0.0008 0.008
