t	amplitude xerr yerr
0.000	-0.285 0.0008 0.008
3.333E-2	-0.283 0.0008 0.008
6.667E-2	-0.279 0.0008 0.008
1.000E-1	-0.273 0.0008 0.008
0.133	-0.266 0.0008 0.008
0.167	-0.256 0.0008 0.008
0.200	-0.244 0.0008 0.008
0.233	-0.230 0.0008 0.008
0.267	-0.215 0.0008 0.008
0.300	-0.197 0.0008 0.008
0.333	-0.178 0.0008 0.008
0.367	-0.159 0.0008 0.008
0.400	-0.139 0.0008 0.008
0.433	-0.117 0.0008 0.008
0.467	-9.379E-2 0.0008 0.008
0.500	-7.057E-2 0.0008 0.008
0.533	-4.685E-2 0.0008 0.008
0.567	-2.279E-2 0.0008 0.008
0.600	1.340E-3 0.0008 0.008
0.633	2.536E-2 0.0008 0.008
0.667	4.929E-2 0.0008 0.008
0.700	7.238E-2 0.0008 0.008
0.733	9.502E-2 0.0008 0.008
0.767	0.117 0.0008 0.008
0.800	0.138 0.0008 0.008
0.833	0.158 0.0008 0.008
0.867	0.177 0.0008 0.008
0.900	0.194 0.0008 0.008
0.933	0.210 0.0008 0.008
0.967	0.224 0.0008 0.008
1.000	0.236 0.0008 0.008
1.033	0.248 0.0008 0.008
1.067	0.257 0.0008 0.008
1.100	0.264 0.0008 0.008
1.133	0.269 0.0008 0.008
1.167	0.273 0.0008 0.008
1.200	0.274 0.0008 0.008
1.233	0.273 0.0008 0.008
1.267	0.271 0.0008 0.008
1.300	0.266 0.0008 0.008
1.333	0.260 0.0008 0.008
1.367	0.252 0.0008 0.008
1.400	0.242 0.0008 0.008
1.433	0.230 0.0008 0.008
1.467	0.216 0.0008 0.008
1.500	0.201 0.0008 0.008
1.533	0.184 0.0008 0.008
1.567	0.165 0.0008 0.008
1.600	0.146 0.0008 0.008
1.633	0.125 0.0008 0.008
1.667	0.104 0.0008 0.008
1.700	8.186E-2 0.0008 0.008
1.733	5.917E-2 0.0008 0.008
1.767	3.544E-2 0.0008 0.008
1.800	1.160E-2 0.0008 0.008
1.833	-1.275E-2 0.0008 0.008
1.867	-3.679E-2 0.0008 0.008
1.900	-6.018E-2 0.0008 0.008
1.933	-8.378E-2 0.0008 0.008
1.967	-0.107 0.0008 0.008
2.000	-0.128 0.0008 0.008
2.033	-0.149 0.0008 0.008
2.067	-0.169 0.0008 0.008
2.100	-0.187 0.0008 0.008
2.133	-0.205 0.0008 0.008
2.167	-0.220 0.0008 0.008
2.200	-0.234 0.0008 0.008
2.233	-0.247 0.0008 0.008
2.267	-0.257 0.0008 0.008
2.300	-0.265 0.0008 0.008
2.333	-0.272 0.0008 0.008
2.367	-0.276 0.0008 0.008
2.400	-0.278 0.0008 0.008
2.433	-0.278 0.0008 0.008
2.467	-0.276 0.0008 0.008
2.500	-0.272 0.0008 0.008
2.533	-0.266 0.0008 0.008
2.567	-0.258 0.0008 0.008
2.600	-0.248 0.0008 0.008
2.633	-0.236 0.0008 0.008
2.667	-0.221 0.0008 0.008
2.700	-0.206 0.0008 0.008
2.733	-0.189 0.0008 0.008
2.767	-0.171 0.0008 0.008
2.800	-0.152 0.0008 0.008
2.833	-0.131 0.0008 0.008
2.867	-0.110 0.0008 0.008
2.900	-8.707E-2 0.0008 0.008
2.933	-6.413E-2 0.0008 0.008
2.967	-4.095E-2 0.0008 0.008
3.000	-1.751E-2 0.0008 0.008
3.033	6.263E-3 0.0008 0.008
3.067	2.972E-2 0.0008 0.008
3.100	5.304E-2 0.0008 0.008
3.133	7.583E-2 0.0008 0.008
3.167	9.825E-2 0.0008 0.008
3.200	0.119 0.0008 0.008
3.233	0.140 0.0008 0.008
3.267	0.159 0.0008 0.008
3.302	0.177 0.0008 0.008
3.333	0.194 0.0008 0.008
3.368	0.209 0.0008 0.008
3.402	0.223 0.0008 0.008
3.435	0.235 0.0008 0.008
3.468	0.245 0.0008 0.008
3.502	0.254 0.0008 0.008
3.535	0.261 0.0008 0.008
3.568	0.265 0.0008 0.008
3.602	0.268 0.0008 0.008
3.635	0.269 0.0008 0.008
3.668	0.268 0.0008 0.008
3.702	0.265 0.0008 0.008
3.735	0.260 0.0008 0.008
3.768	0.254 0.0008 0.008
3.802	0.245 0.0008 0.008
3.835	0.235 0.0008 0.008
3.868	0.223 0.0008 0.008
3.902	0.209 0.0008 0.008
3.935	0.194 0.0008 0.008
3.968	0.177 0.0008 0.008
4.002	0.158 0.0008 0.008
4.035	0.139 0.0008 0.008
4.068	0.118 0.0008 0.008
4.102	9.693E-2 0.0008 0.008
4.135	7.490E-2 0.0008 0.008
4.168	5.248E-2 0.0008 0.008
4.202	2.899E-2 0.0008 0.008
4.235	5.565E-3 0.0008 0.008
4.268	-1.811E-2 0.0008 0.008
4.302	-4.141E-2 0.0008 0.008
4.335	-6.424E-2 0.0008 0.008
4.368	-8.698E-2 0.0008 0.008
4.402	-0.109 0.0008 0.008
4.435	-0.130 0.0008 0.008
4.468	-0.151 0.0008 0.008
4.502	-0.170 0.0008 0.008
4.535	-0.188 0.0008 0.008
4.568	-0.204 0.0008 0.008
4.602	-0.220 0.0008 0.008
4.635	-0.233 0.0008 0.008
4.668	-0.244 0.0008 0.008
4.702	-0.254 0.0008 0.008
4.735	-0.261 0.0008 0.008
4.768	-0.268 0.0008 0.008
4.802	-0.271 0.0008 0.008
4.835	-0.272 0.0008 0.008
4.868	-0.272 0.0008 0.008
4.902	-0.270 0.0008 0.008
4.935	-0.266 0.0008 0.008
4.968	-0.259 0.0008 0.008
5.002	-0.250 0.0008 0.008
5.035	-0.239 0.0008 0.008
5.068	-0.227 0.0008 0.008
5.102	-0.214 0.0008 0.008
5.135	-0.198 0.0008 0.008
5.168	-0.181 0.0008 0.008
5.202	-0.163 0.0008 0.008
5.235	-0.144 0.0008 0.008
5.268	-0.123 0.0008 0.008
5.302	-0.102 0.0008 0.008
5.335	-8.019E-2 0.0008 0.008
5.368	-5.756E-2 0.0008 0.008
5.402	-3.466E-2 0.0008 0.008
5.435	-1.126E-2 0.0008 0.008
5.468	1.196E-2 0.0008 0.008
5.502	3.506E-2 0.0008 0.008
5.535	5.770E-2 0.0008 0.008
5.568	7.975E-2 0.0008 0.008
5.602	0.101 0.0008 0.008
5.635	0.122 0.0008 0.008
5.668	0.142 0.0008 0.008
5.702	0.160 0.0008 0.008
5.735	0.178 0.0008 0.008
5.768	0.194 0.0008 0.008
5.802	0.209 0.0008 0.008
5.835	0.222 0.0008 0.008
5.868	0.233 0.0008 0.008
5.902	0.243 0.0008 0.008
5.935	0.250 0.0008 0.008
5.968	0.256 0.0008 0.008
6.002	0.261 0.0008 0.008
6.035	0.263 0.0008 0.008
6.068	0.263 0.0008 0.008
6.102	0.261 0.0008 0.008
6.135	0.258 0.0008 0.008
6.168	0.253 0.0008 0.008
6.202	0.246 0.0008 0.008
6.235	0.237 0.0008 0.008
6.268	0.226 0.0008 0.008
6.302	0.214 0.0008 0.008
6.335	0.200 0.0008 0.008
6.368	0.185 0.0008 0.008
6.402	0.168 0.0008 0.008
6.435	0.149 0.0008 0.008
6.468	0.130 0.0008 0.008
6.502	0.109 0.0008 0.008
6.535	8.799E-2 0.0008 0.008
6.568	6.674E-2 0.0008 0.008
6.602	4.391E-2 0.0008 0.008
6.635	2.120E-2 0.0008 0.008
6.668	-1.549E-3 0.0008 0.008
6.702	-2.413E-2 0.0008 0.008
6.735	-4.721E-2 0.0008 0.008
6.768	-7.004E-2 0.0008 0.008
6.802	-9.222E-2 0.0008 0.008
6.835	-0.113 0.0008 0.008
6.868	-0.134 0.0008 0.008
6.902	-0.153 0.0008 0.008
6.935	-0.172 0.0008 0.008
6.968	-0.189 0.0008 0.008
7.002	-0.205 0.0008 0.008
7.035	-0.219 0.0008 0.008
7.068	-0.232 0.0008 0.008
7.102	-0.242 0.0008 0.008
7.135	-0.252 0.0008 0.008
7.168	-0.258 0.0008 0.008
7.202	-0.263 0.0008 0.008
7.235	-0.266 0.0008 0.008
7.270	-0.267 0.0008 0.008
7.302	-0.266 0.0008 0.008
7.337	-0.263 0.0008 0.008
7.370	-0.259 0.0008 0.008
7.403	-0.252 0.0008 0.008
7.437	-0.243 0.0008 0.008
7.470	-0.232 0.0008 0.008
7.503	-0.220 0.0008 0.008
7.537	-0.206 0.0008 0.008
7.570	-0.190 0.0008 0.008
7.603	-0.173 0.0008 0.008
7.637	-0.155 0.0008 0.008
7.670	-0.136 0.0008 0.008
7.703	-0.115 0.0008 0.008
7.737	-9.376E-2 0.0008 0.008
7.770	-7.192E-2 0.0008 0.008
7.803	-4.993E-2 0.0008 0.008
7.837	-2.717E-2 0.0008 0.008
7.870	-4.537E-3 0.0008 0.008
7.903	1.809E-2 0.0008 0.008
7.937	4.030E-2 0.0008 0.008
7.970	6.282E-2 0.0008 0.008
8.003	8.439E-2 0.0008 0.008
8.037	0.105 0.0008 0.008
8.070	0.125 0.0008 0.008
8.103	0.145 0.0008 0.008
8.137	0.162 0.0008 0.008
8.170	0.179 0.0008 0.008
8.203	0.195 0.0008 0.008
8.237	0.209 0.0008 0.008
8.270	0.221 0.0008 0.008
8.303	0.232 0.0008 0.008
8.337	0.241 0.0008 0.008
8.370	0.248 0.0008 0.008
8.403	0.253 0.0008 0.008
8.437	0.257 0.0008 0.008
8.470	0.259 0.0008 0.008
8.503	0.259 0.0008 0.008
8.537	0.257 0.0008 0.008
8.570	0.253 0.0008 0.008
8.603	0.248 0.0008 0.008
8.637	0.240 0.0008 0.008
8.670	0.230 0.0008 0.008
8.703	0.219 0.0008 0.008
8.737	0.207 0.0008 0.008
8.770	0.193 0.0008 0.008
8.803	0.178 0.0008 0.008
8.837	0.161 0.0008 0.008
8.870	0.142 0.0008 0.008
8.903	0.123 0.0008 0.008
8.937	0.102 0.0008 0.008
8.970	8.128E-2 0.0008 0.008
9.003	5.988E-2 0.0008 0.008
9.037	3.797E-2 0.0008 0.008
9.070	1.519E-2 0.0008 0.008
9.103	-7.385E-3 0.0008 0.008
9.137	-3.008E-2 0.0008 0.008
9.170	-5.234E-2 0.0008 0.008
9.203	-7.417E-2 0.0008 0.008
9.237	-9.559E-2 0.0008 0.008
9.270	-0.117 0.0008 0.008
9.303	-0.136 0.0008 0.008
9.337	-0.155 0.0008 0.008
9.370	-0.173 0.0008 0.008
9.403	-0.189 0.0008 0.008
9.437	-0.204 0.0008 0.008
9.470	-0.218 0.0008 0.008
9.503	-0.230 0.0008 0.008
9.537	-0.240 0.0008 0.008
9.570	-0.248 0.0008 0.008
9.603	-0.254 0.0008 0.008
9.637	-0.259 0.0008 0.008
9.670	-0.262 0.0008 0.008
9.703	-0.262 0.0008 0.008
9.737	-0.261 0.0008 0.008
9.770	-0.257 0.0008 0.008
9.803	-0.252 0.0008 0.008
9.837	-0.245 0.0008 0.008
9.870	-0.235 0.0008 0.008
9.903	-0.225 0.0008 0.008
9.937	-0.212 0.0008 0.008
9.970	-0.197 0.0008 0.008
10.00	-0.181 0.0008 0.008
10.04	-0.164 0.0008 0.008
10.07	-0.146 0.0008 0.008
10.10	-0.127 0.0008 0.008
10.14	-0.107 0.0008 0.008
10.17	-8.597E-2 0.0008 0.008
10.20	-6.422E-2 0.0008 0.008
10.24	-4.309E-2 0.0008 0.008
10.27	-2.043E-2 0.0008 0.008
10.30	1.708E-3 0.0008 0.008
10.34	2.387E-2 0.0008 0.008
10.37	4.574E-2 0.0008 0.008
10.40	6.745E-2 0.0008 0.008
10.44	8.848E-2 0.0008 0.008
10.47	0.109 0.0008 0.008
10.50	0.129 0.0008 0.008
10.54	0.147 0.0008 0.008
10.57	0.164 0.0008 0.008
10.60	0.180 0.0008 0.008
10.64	0.195 0.0008 0.008
10.67	0.208 0.0008 0.008
10.70	0.220 0.0008 0.008
10.74	0.230 0.0008 0.008
10.77	0.238 0.0008 0.008
10.80	0.245 0.0008 0.008
10.84	0.249 0.0008 0.008
10.87	0.252 0.0008 0.008
10.90	0.253 0.0008 0.008
10.94	0.253 0.0008 0.008
10.97	0.250 0.0008 0.008
11.00	0.245 0.0008 0.008
11.04	0.240 0.0008 0.008
11.07	0.232 0.0008 0.008
11.10	0.222 0.0008 0.008
11.14	0.211 0.0008 0.008
11.17	0.198 0.0008 0.008
11.20	0.184 0.0008 0.008
11.24	0.168 0.0008 0.008
11.27	0.151 0.0008 0.008
11.31	0.133 0.0008 0.008
11.34	0.114 0.0008 0.008
11.37	9.373E-2 0.0008 0.008
11.41	7.270E-2 0.0008 0.008
11.44	5.161E-2 0.0008 0.008
11.47	2.960E-2 0.0008 0.008
11.51	7.846E-3 0.0008 0.008
11.54	-1.437E-2 0.0008 0.008
11.57	-3.675E-2 0.0008 0.008
11.61	-5.807E-2 0.0008 0.008
11.64	-8.001E-2 0.0008 0.008
11.67	-0.101 0.0008 0.008
11.71	-0.121 0.0008 0.008
11.74	-0.140 0.0008 0.008
11.77	-0.158 0.0008 0.008
11.81	-0.175 0.0008 0.008
11.84	-0.191 0.0008 0.008
11.87	-0.205 0.0008 0.008
11.91	-0.218 0.0008 0.008
11.94	-0.229 0.0008 0.008
11.97	-0.238 0.0008 0.008
12.01	-0.246 0.0008 0.008
12.04	-0.252 0.0008 0.008
12.07	-0.255 0.0008 0.008
12.11	-0.257 0.0008 0.008
12.14	-0.257 0.0008 0.008
12.17	-0.255 0.0008 0.008
12.21	-0.251 0.0008 0.008
12.24	-0.244 0.0008 0.008
12.27	-0.237 0.0008 0.008
12.31	-0.227 0.0008 0.008
12.34	-0.216 0.0008 0.008
12.37	-0.203 0.0008 0.008
12.41	-0.189 0.0008 0.008
12.44	-0.173 0.0008 0.008
12.47	-0.155 0.0008 0.008
12.51	-0.137 0.0008 0.008
12.54	-0.118 0.0008 0.008
12.57	-9.828E-2 0.0008 0.008
12.61	-7.723E-2 0.0008 0.008
12.64	-5.619E-2 0.0008 0.008
12.67	-3.484E-2 0.0008 0.008
12.71	-1.295E-2 0.0008 0.008
12.74	9.004E-3 0.0008 0.008
12.77	3.111E-2 0.0008 0.008
12.81	5.256E-2 0.0008 0.008
12.84	7.355E-2 0.0008 0.008
12.87	9.402E-2 0.0008 0.008
12.91	0.114 0.0008 0.008
12.94	0.132 0.0008 0.008
12.97	0.150 0.0008 0.008
13.01	0.167 0.0008 0.008
13.04	0.182 0.0008 0.008
13.07	0.196 0.0008 0.008
13.11	0.209 0.0008 0.008
13.14	0.219 0.0008 0.008
13.17	0.229 0.0008 0.008
13.21	0.237 0.0008 0.008
13.24	0.243 0.0008 0.008
13.27	0.247 0.0008 0.008
13.31	0.249 0.0008 0.008
13.34	0.250 0.0008 0.008
13.37	0.249 0.0008 0.008
13.41	0.245 0.0008 0.008
13.44	0.240 0.0008 0.008
13.47	0.234 0.0008 0.008
13.51	0.225 0.0008 0.008
13.54	0.215 0.0008 0.008
13.57	0.203 0.0008 0.008
13.61	0.190 0.0008 0.008
13.64	0.175 0.0008 0.008
13.67	0.159 0.0008 0.008
13.71	0.142 0.0008 0.008
13.74	0.124 0.0008 0.008
13.77	0.105 0.0008 0.008
13.81	8.486E-2 0.0008 0.008
13.84	6.443E-2 0.0008 0.008
13.87	4.335E-2 0.0008 0.008
13.91	2.209E-2 0.0008 0.008
13.94	2.716E-4 0.0008 0.008
13.97	-2.176E-2 0.0008 0.008
14.01	-4.311E-2 0.0008 0.008
14.04	-6.435E-2 0.0008 0.008
14.07	-8.513E-2 0.0008 0.008
14.11	-0.105 0.0008 0.008
14.14	-0.125 0.0008 0.008
14.17	-0.143 0.0008 0.008
14.21	-0.160 0.0008 0.008
14.24	-0.177 0.0008 0.008
14.27	-0.192 0.0008 0.008
14.31	-0.205 0.0008 0.008
14.34	-0.217 0.0008 0.008
14.37	-0.228 0.0008 0.008
14.41	-0.236 0.0008 0.008
14.44	-0.243 0.0008 0.008
14.47	-0.248 0.0008 0.008
14.51	-0.251 0.0008 0.008
14.54	-0.252 0.0008 0.008
14.57	-0.251 0.0008 0.008
14.61	-0.249 0.0008 0.008
14.64	-0.245 0.0008 0.008
14.67	-0.238 0.0008 0.008
14.71	-0.230 0.0008 0.008
14.74	-0.220 0.0008 0.008
14.77	-0.208 0.0008 0.008
14.81	-0.195 0.0008 0.008
14.84	-0.180 0.0008 0.008
14.87	-0.164 0.0008 0.008
14.91	-0.148 0.0008 0.008
14.94	-0.130 0.0008 0.008
14.97	-0.110 0.0008 0.008
15.01	-9.018E-2 0.0008 0.008
15.04	-6.932E-2 0.0008 0.008
15.07	-4.848E-2 0.0008 0.008
15.11	-2.710E-2 0.0008 0.008
15.14	-5.513E-3 0.0008 0.008
15.17	1.603E-2 0.0008 0.008
15.21	3.729E-2 0.0008 0.008
15.24	5.839E-2 0.0008 0.008
15.27	7.891E-2 0.0008 0.008
15.31	9.892E-2 0.0008 0.008
15.34	0.118 0.0008 0.008
15.37	0.136 0.0008 0.008
15.41	0.153 0.0008 0.008
15.44	0.169 0.0008 0.008
15.47	0.184 0.0008 0.008
15.51	0.197 0.0008 0.008
15.54	0.209 0.0008 0.008
15.57	0.219 0.0008 0.008
15.61	0.227 0.0008 0.008
15.64	0.234 0.0008 0.008
15.67	0.240 0.0008 0.008
15.71	0.243 0.0008 0.008
15.74	0.245 0.0008 0.008
15.77	0.245 0.0008 0.008
15.81	0.243 0.0008 0.008
15.84	0.239 0.0008 0.008
15.87	0.234 0.0008 0.008
15.91	0.226 0.0008 0.008
15.94	0.218 0.0008 0.008
15.97	0.207 0.0008 0.008
16.01	0.196 0.0008 0.008
16.04	0.183 0.0008 0.008
16.07	0.168 0.0008 0.008
16.11	0.152 0.0008 0.008
16.14	0.135 0.0008 0.008
16.17	0.117 0.0008 0.008
16.21	9.782E-2 0.0008 0.008
16.24	7.816E-2 0.0008 0.008
16.27	5.763E-2 0.0008 0.008
16.31	3.638E-2 0.0008 0.008
16.34	1.517E-2 0.0008 0.008
16.37	-5.917E-3 0.0008 0.008
16.41	-2.711E-2 0.0008 0.008
16.44	-4.804E-2 0.0008 0.008
16.47	-6.886E-2 0.0008 0.008
16.51	-8.914E-2 0.0008 0.008
16.54	-0.109 0.0008 0.008
16.57	-0.128 0.0008 0.008
16.61	-0.145 0.0008 0.008
16.64	-0.162 0.0008 0.008
16.67	-0.178 0.0008 0.008
16.71	-0.193 0.0008 0.008
16.74	-0.205 0.0008 0.008
16.77	-0.216 0.0008 0.008
16.81	-0.226 0.0008 0.008
16.84	-0.234 0.0008 0.008
16.87	-0.240 0.0008 0.008
16.91	-0.244 0.0008 0.008
16.94	-0.246 0.0008 0.008
16.97	-0.247 0.0008 0.008
17.01	-0.246 0.0008 0.008
17.04	-0.242 0.0008 0.008
17.07	-0.237 0.0008 0.008
17.11	-0.230 0.0008 0.008
17.14	-0.222 0.0008 0.008
17.17	-0.211 0.0008 0.008
17.21	-0.199 0.0008 0.008
17.24	-0.186 0.0008 0.008
17.27	-0.172 0.0008 0.008
17.31	-0.156 0.0008 0.008
17.34	-0.139 0.0008 0.008
17.37	-0.120 0.0008 0.008
17.41	-0.102 0.0008 0.008
17.44	-8.141E-2 0.0008 0.008
17.47	-6.145E-2 0.0008 0.008
17.51	-4.058E-2 0.0008 0.008
17.54	-1.943E-2 0.0008 0.008
17.57	1.032E-3 0.0008 0.008
17.61	2.192E-2 0.0008 0.008
17.64	4.280E-2 0.0008 0.008
17.67	6.302E-2 0.0008 0.008
17.71	8.292E-2 0.0008 0.008
17.74	0.102 0.0008 0.008
17.77	0.121 0.0008 0.008
17.81	0.139 0.0008 0.008
17.84	0.155 0.0008 0.008
17.87	0.170 0.0008 0.008
17.91	0.184 0.0008 0.008
17.94	0.196 0.0008 0.008
17.97	0.208 0.0008 0.008
18.01	0.217 0.0008 0.008
18.04	0.225 0.0008 0.008
18.07	0.231 0.0008 0.008
18.11	0.236 0.0008 0.008
18.14	0.239 0.0008 0.008
18.17	0.240 0.0008 0.008
18.21	0.239 0.0008 0.008
18.24	0.237 0.0008 0.008
18.27	0.233 0.0008 0.008
18.31	0.227 0.0008 0.008
18.34	0.220 0.0008 0.008
18.37	0.210 0.0008 0.008
18.41	0.199 0.0008 0.008
18.44	0.187 0.0008 0.008
18.47	0.174 0.0008 0.008
18.51	0.159 0.0008 0.008
18.54	0.143 0.0008 0.008
18.57	0.126 0.0008 0.008
18.61	0.108 0.0008 0.008
18.64	8.862E-2 0.0008 0.008
18.67	6.905E-2 0.0008 0.008
18.71	4.863E-2 0.0008 0.008
18.74	2.809E-2 0.0008 0.008
18.77	7.512E-3 0.0008 0.008
18.81	-1.331E-2 0.0008 0.008
18.84	-3.409E-2 0.0008 0.008
18.87	-5.461E-2 0.0008 0.008
18.91	-7.491E-2 0.0008 0.008
18.94	-9.431E-2 0.0008 0.008
18.97	-0.114 0.0008 0.008
19.01	-0.131 0.0008 0.008
19.04	-0.149 0.0008 0.008
19.07	-0.165 0.0008 0.008
19.11	-0.180 0.0008 0.008
19.14	-0.194 0.0008 0.008
19.18	-0.205 0.0008 0.008
19.21	-0.215 0.0008 0.008
19.24	-0.224 0.0008 0.008
19.27	-0.231 0.0008 0.008
19.31	-0.237 0.0008 0.008
19.34	-0.239 0.0008 0.008
19.38	-0.241 0.0008 0.008
19.41	-0.241 0.0008 0.008
19.44	-0.239 0.0008 0.008
19.48	-0.236 0.0008 0.008
19.51	-0.230 0.0008 0.008
19.54	-0.223 0.0008 0.008
19.58	-0.213 0.0008 0.008
19.61	-0.203 0.0008 0.008
19.64	-0.191 0.0008 0.008
19.68	-0.177 0.0008 0.008
19.71	-0.162 0.0008 0.008
19.74	-0.146 0.0008 0.008
19.77	-0.129 0.0008 0.008
19.81	-0.111 0.0008 0.008
19.84	-9.268E-2 0.0008 0.008
19.88	-7.279E-2 0.0008 0.008
19.91	-5.285E-2 0.0008 0.008
19.94	-3.255E-2 0.0008 0.008
19.98	-1.184E-2 0.0008 0.008
20.01	8.655E-3 0.0008 0.008
20.04	2.896E-2 0.0008 0.008
20.08	4.926E-2 0.0008 0.008
20.11	6.910E-2 0.0008 0.008
20.14	8.831E-2 0.0008 0.008
20.18	0.107 0.0008 0.008
20.21	0.125 0.0008 0.008
20.24	0.142 0.0008 0.008
20.27	0.158 0.0008 0.008
20.31	0.172 0.0008 0.008
20.34	0.186 0.0008 0.008
20.38	0.197 0.0008 0.008
20.41	0.208 0.0008 0.008
20.44	0.216 0.0008 0.008
20.48	0.224 0.0008 0.008
20.51	0.229 0.0008 0.008
20.54	0.233 0.0008 0.008
20.58	0.235 0.0008 0.008
20.61	0.236 0.0008 0.008
20.64	0.234 0.0008 0.008
20.68	0.232 0.0008 0.008
20.71	0.227 0.0008 0.008
20.74	0.221 0.0008 0.008
20.78	0.213 0.0008 0.008
20.81	0.204 0.0008 0.008
20.84	0.193 0.0008 0.008
20.88	0.181 0.0008 0.008
20.91	0.167 0.0008 0.008
20.94	0.151 0.0008 0.008
20.98	0.135 0.0008 0.008
21.01	0.118 0.0008 0.008
21.04	9.927E-2 0.0008 0.008
21.08	8.052E-2 0.0008 0.008
21.11	6.126E-2 0.0008 0.008
21.14	4.109E-2 0.0008 0.008
21.18	2.060E-2 0.0008 0.008
21.21	2.317E-6 0.0008 0.008
21.24	-2.048E-2 0.0008 0.008
21.28	-4.051E-2 0.0008 0.008
21.31	-6.051E-2 0.0008 0.008
21.34	-8.010E-2 0.0008 0.008
21.38	-9.923E-2 0.0008 0.008
21.41	-0.117 0.0008 0.008
21.44	-0.135 0.0008 0.008
21.48	-0.151 0.0008 0.008
21.51	-0.167 0.0008 0.008
21.54	-0.181 0.0008 0.008
21.58	-0.193 0.0008 0.008
21.61	-0.204 0.0008 0.008
21.64	-0.215 0.0008 0.008
21.68	-0.223 0.0008 0.008
21.71	-0.229 0.0008 0.008
21.74	-0.234 0.0008 0.008
21.78	-0.237 0.0008 0.008
21.81	-0.238 0.0008 0.008
21.84	-0.237 0.0008 0.008
21.87	-0.235 0.0008 0.008
21.91	-0.230 0.0008 0.008
21.94	-0.224 0.0008 0.008
21.98	-0.216 0.0008 0.008
22.01	-0.207 0.0008 0.008
22.04	-0.196 0.0008 0.008
22.08	-0.184 0.0008 0.008
22.11	-0.170 0.0008 0.008
22.14	-0.155 0.0008 0.008
22.18	-0.139 0.0008 0.008
22.21	-0.121 0.0008 0.008
22.24	-0.104 0.0008 0.008
22.28	-8.463E-2 0.0008 0.008
22.31	-6.583E-2 0.0008 0.008
22.34	-4.562E-2 0.0008 0.008
22.37	-2.553E-2 0.0008 0.008
22.41	-5.177E-3 0.0008 0.008
22.44	1.497E-2 0.0008 0.008
22.48	3.563E-2 0.0008 0.008
22.51	5.547E-2 0.0008 0.008
22.54	7.454E-2 0.0008 0.008
22.58	9.324E-2 0.0008 0.008
22.61	0.112 0.0008 0.008
22.64	0.129 0.0008 0.008
22.68	0.145 0.0008 0.008
22.71	0.160 0.0008 0.008
22.74	0.174 0.0008 0.008
22.78	0.186 0.0008 0.008
22.81	0.197 0.0008 0.008
22.84	0.207 0.0008 0.008
22.87	0.215 0.0008 0.008
22.91	0.222 0.0008 0.008
22.94	0.227 0.0008 0.008
22.98	0.230 0.0008 0.008
23.01	0.231 0.0008 0.008
23.04	0.231 0.0008 0.008
23.08	0.229 0.0008 0.008
23.11	0.226 0.0008 0.008
23.14	0.221 0.0008 0.008
23.18	0.214 0.0008 0.008
23.21	0.205 0.0008 0.008
23.24	0.195 0.0008 0.008
23.28	0.184 0.0008 0.008
23.31	0.171 0.0008 0.008
23.34	0.157 0.0008 0.008
23.38	0.142 0.0008 0.008
23.41	0.126 0.0008 0.008
23.44	0.108 0.0008 0.008
23.48	9.089E-2 0.0008 0.008
23.51	7.218E-2 0.0008 0.008
23.54	5.244E-2 0.0008 0.008
23.58	3.258E-2 0.0008 0.008
23.61	1.292E-2 0.0008 0.008
23.64	-6.843E-3 0.0008 0.008
23.68	-2.692E-2 0.0008 0.008
23.71	-4.679E-2 0.0008 0.008
23.74	-6.659E-2 0.0008 0.008
23.78	-8.558E-2 0.0008 0.008
23.81	-0.104 0.0008 0.008
23.84	-0.122 0.0008 0.008
23.88	-0.139 0.0008 0.008
23.91	-0.154 0.0008 0.008
23.94	-0.169 0.0008 0.008
23.98	-0.182 0.0008 0.008
24.01	-0.194 0.0008 0.008
24.04	-0.204 0.0008 0.008
24.08	-0.213 0.0008 0.008
24.11	-0.221 0.0008 0.008
24.14	-0.226 0.0008 0.008
24.18	-0.230 0.0008 0.008
24.21	-0.232 0.0008 0.008
24.24	-0.233 0.0008 0.008
24.28	-0.231 0.0008 0.008
24.31	-0.228 0.0008 0.008
24.34	-0.223 0.0008 0.008
24.38	-0.217 0.0008 0.008
